5.026260570 32.0
5.078781701 26.0
5.131302831 24.0
5.183823962 18.0
5.236345093 21.0
5.288866224 12.0
5.341387354 19.0
5.393908485 22.0
5.446429616 33.0
5.498950746 30.0
5.551471877 23.0
5.603993008 22.0
5.656514138 26.0
5.709035269 20.0
5.761556400 22.0
5.814077531 23.0
5.866598661 17.0
5.919119792 30.0
5.971640923 29.0
6.024162053 13.0
6.076683184 15.0
6.129204315 16.0
6.181725445 20.0
6.234246576 13.0
6.286767707 23.0
6.339288838 26.0
6.391809968 21.0
6.444331099 22.0
6.496852230 6.0
6.549373360 19.0
6.601894491 20.0
6.654415622 23.0
6.706936752 10.0
6.759457883 24.0
6.811979014 19.0
6.864500145 17.0
6.917021275 8.0
6.969542406 14.0
7.022063537 23.0
7.074584667 15.0
7.127105798 17.0
7.179626929 21.0
7.232148059 11.0
7.284669190 21.0
7.337190321 16.0
7.389711452 15.0
7.442232582 14.0
7.494753713 19.0
7.547274844 20.0
7.599795974 23.0
7.652317105 25.0
7.704838236 17.0
7.757359366 19.0
7.809880497 16.0
7.862401628 15.0
7.914922759 21.0
7.967443889 20.0
8.019965020 22.0
8.072486151 16.0
8.125007281 9.0
8.177528412 17.0
8.230049543 11.0
8.282570673 8.0
8.335091804 11.0
8.387612935 17.0
8.440134066 14.0
8.492655196 15.0
8.545176327 22.0
8.597697458 9.0
8.650218588 12.0
8.702739719 17.0
8.755260850 14.0
8.807781980 15.0
8.860303111 15.0
8.912824242 15.0
8.965345373 13.0
9.017866503 13.0
9.070387634 16.0
9.122908765 13.0
9.175429895 14.0
9.227951026 13.0
9.280472157 21.0
9.332993287 13.0
9.385514418 19.0
9.438035549 16.0
9.490556680 15.0
9.543077810 14.0
9.595598941 12.0
9.648120072 15.0
9.700641202 23.0
9.753162333 12.0
9.805683464 12.0
9.858204594 17.0
9.910725725 14.0
9.963246856 6.0
10.015767987 7.0
10.068289117 11.0
10.120810248 11.0
10.173331379 12.0
10.225852509 10.0
10.278373640 10.0
10.330894771 18.0
10.383415901 7.0
10.435937032 14.0
10.488458163 14.0
10.540979294 17.0
10.593500424 14.0
10.646021555 12.0
10.698542686 8.0
10.751063816 13.0
10.803584947 17.0
10.856106078 9.0
10.908627208 9.0
10.961148339 12.0
11.013669470 6.0
11.066190601 12.0
11.118711731 16.0
11.171232862 19.0
11.223753993 17.0
11.276275123 9.0
11.328796254 16.0
11.381317385 16.0
11.433838515 12.0
11.486359646 20.0
11.538880777 18.0
11.591401908 11.0
11.643923038 22.0
11.696444169 15.0
11.748965300 11.0
11.801486430 14.0
11.854007561 11.0
11.906528692 18.0
11.959049822 15.0
12.011570953 16.0
12.064092084 17.0
12.116613215 18.0
12.169134345 17.0
12.221655476 17.0
12.274176607 14.0
12.326697737 24.0
12.379218868 21.0
12.431739999 30.0
12.484261129 20.0
12.536782260 32.0
12.589303391 37.0
12.641824522 73.0
12.694345652 129.0
12.746866783 76.0
12.799387914 23.0
12.851909044 13.0
12.904430175 16.0
12.956951306 20.0
13.009472436 11.0
13.061993567 13.0
13.114514698 15.0
13.167035829 11.0
13.219556959 17.0
13.272078090 12.0
13.324599221 21.0
13.377120351 18.0
13.429641482 18.0
13.482162613 22.0
13.534683743 24.0
13.587204874 18.0
13.639726005 30.0
13.692247136 45.0
13.744768266 65.0
13.797289397 72.0
13.849810528 109.0
13.902331658 169.0
13.954852789 227.0
14.007373920 139.0
14.059895050 69.0
14.112416181 37.0
14.164937312 27.0
14.217458443 25.0
14.269979573 22.0
14.322500704 18.0
14.375021835 12.0
14.427542965 15.0
14.480064096 15.0
14.532585227 13.0
14.585106357 19.0
14.637627488 10.0
14.690148619 10.0
14.742669750 13.0
14.795190880 18.0
14.847712011 22.0
14.900233142 8.0
14.952754272 8.0
15.005275403 12.0
15.057796534 7.0
15.110317665 17.0
15.162838795 7.0
15.215359926 11.0
15.267881057 18.0
15.320402187 12.0
15.372923318 4.0
15.425444449 13.0
15.477965579 4.0
15.530486710 15.0
15.583007841 13.0
15.635528972 9.0
15.688050102 12.0
15.740571233 20.0
15.793092364 6.0
15.845613494 7.0
15.898134625 12.0
15.950655756 16.0
16.003176886 12.0
16.055698017 11.0
16.108219148 16.0
16.160740279 14.0
16.213261409 8.0
16.265782540 6.0
16.318303671 0.0
16.370824801 10.0
16.423345932 10.0
16.475867063 10.0
16.528388193 10.0
16.580909324 6.0
16.633430455 6.0
16.685951586 13.0
16.738472716 13.0
16.790993847 6.0
16.843514978 10.0
16.896036108 5.0
16.948557239 8.0
17.001078370 9.0
17.053599500 10.0
17.106120631 5.0
17.158641762 14.0
17.211162893 9.0
17.263684023 7.0
17.316205154 13.0
17.368726285 5.0
17.421247415 9.0
17.473768546 16.0
17.526289677 14.0
17.578810807 14.0
17.631331938 4.0
17.683853069 15.0
17.736374200 12.0
17.788895330 4.0
17.841416461 16.0
17.893937592 17.0
17.946458722 16.0
17.998979853 11.0
18.051500984 11.0
18.104022114 11.0
18.156543245 13.0
18.209064376 8.0
18.261585507 9.0
18.314106637 9.0
18.366627768 13.0
18.419148899 9.0
18.471670029 12.0
18.524191160 11.0
18.576712291 9.0
18.629233421 9.0
18.681754552 13.0
18.734275683 12.0
18.786796814 10.0
18.839317944 10.0
18.891839075 7.0
18.944360206 6.0
18.996881336 8.0
19.049402467 11.0
19.101923598 7.0
19.154444728 10.0
19.206965859 8.0
19.259486990 10.0
19.312008121 10.0
19.364529251 13.0
19.417050382 11.0
19.469571513 11.0
19.522092643 15.0
19.574613774 10.0
19.627134905 21.0
19.679656035 19.0
19.732177166 37.0
19.784698297 39.0
19.837219428 24.0
19.889740558 17.0
19.942261689 10.0
19.994782820 9.0
20.047303950 19.0
20.099825081 12.0
20.152346212 10.0
20.204867342 11.0
20.257388473 14.0
20.309909604 23.0
20.362430735 12.0
20.414951865 5.0
20.467472996 8.0
20.519994127 15.0
20.572515257 15.0
20.625036388 7.0
20.677557519 15.0
20.730078649 11.0
20.782599780 11.0
20.835120911 13.0
20.887642042 12.0
20.940163172 11.0
20.992684303 19.0
21.045205434 11.0
21.097726564 12.0
21.150247695 10.0
21.202768826 9.0
21.255289956 24.0
21.307811087 18.0
21.360332218 14.0
21.412853349 10.0
21.465374479 17.0
21.517895610 18.0
21.570416741 13.0
21.622937871 20.0
21.675459002 16.0
21.727980133 18.0
21.780501263 12.0
21.833022394 16.0
21.885543525 15.0
21.938064656 14.0
21.990585786 18.0
22.043106917 19.0
22.095628048 17.0
22.148149178 14.0
22.200670309 19.0
22.253191440 13.0
22.305712570 6.0
22.358233701 16.0
22.410754832 25.0
22.463275963 15.0
22.515797093 22.0
22.568318224 19.0
22.620839355 17.0
22.673360485 11.0
22.725881616 15.0
22.778402747 12.0
22.830923877 15.0
22.883445008 19.0
22.935966139 14.0
22.988487270 20.0
23.041008400 18.0
23.093529531 18.0
23.146050662 18.0
23.198571792 17.0
23.251092923 21.0
23.303614054 15.0
23.356135184 16.0
23.408656315 21.0
23.461177446 23.0
23.513698577 15.0
23.566219707 15.0
23.618740838 17.0
23.671261969 16.0
23.723783099 23.0
23.776304230 15.0
23.828825361 23.0
23.881346491 17.0
23.933867622 27.0
23.986388753 32.0
24.038909884 26.0
24.091431014 34.0
24.143952145 64.0
24.196473276 85.0
24.248994406 119.0
24.301515537 111.0
24.354036668 36.0
24.406557798 22.0
24.459078929 31.0
24.511600060 23.0
24.564121191 25.0
24.616642321 15.0
24.669163452 32.0
24.721684583 28.0
24.774205713 16.0
24.826726844 16.0
24.879247975 21.0
24.931769105 14.0
24.984290236 21.0
25.036811367 24.0
25.089332498 18.0
25.141853628 15.0
25.194374759 25.0
25.246895890 25.0
25.299417020 23.0
25.351938151 20.0
25.404459282 19.0
25.456980413 25.0
25.509501543 34.0
25.562022674 30.0
25.614543805 16.0
25.667064935 24.0
25.719586066 14.0
25.772107197 19.0
25.824628327 25.0
25.877149458 20.0
25.929670589 37.0
25.982191720 15.0
26.034712850 29.0
26.087233981 21.0
26.139755112 24.0
26.192276242 21.0
26.244797373 29.0
26.297318504 23.0
26.349839634 33.0
26.402360765 17.0
26.454881896 26.0
26.507403027 28.0
26.559924157 20.0
26.612445288 27.0
26.664966419 24.0
26.717487549 30.0
26.770008680 18.0
26.822529811 13.0
26.875050941 17.0
26.927572072 18.0
26.980093203 22.0
27.032614334 21.0
27.085135464 26.0
27.137656595 24.0
27.190177726 18.0
27.242698856 23.0
27.295219987 28.0
27.347741118 19.0
27.400262248 21.0
27.452783379 21.0
27.505304510 17.0
27.557825641 23.0
27.610346771 21.0
27.662867902 26.0
27.715389033 20.0
27.767910163 26.0
27.820431294 32.0
27.872952425 17.0
27.925473555 38.0
27.977994686 66.0
28.030515817 93.0
28.083036948 131.0
28.135558078 93.0
28.188079209 59.0
28.240600340 38.0
28.293121470 28.0
28.345642601 17.0
28.398163732 18.0
28.450684862 19.0
28.503205993 26.0
28.555727124 27.0
28.608248255 26.0
28.660769385 17.0
28.713290516 17.0
28.765811647 22.0
28.818332777 17.0
28.870853908 24.0
28.923375039 17.0
28.975896169 10.0
29.028417300 16.0
29.080938431 18.0
29.133459562 34.0
29.185980692 14.0
29.238501823 21.0
29.291022954 22.0
29.343544084 28.0
29.396065215 16.0
29.448586346 11.0
29.501107476 16.0
29.553628607 22.0
29.606149738 12.0
29.658670869 13.0
29.711191999 14.0
29.763713130 10.0
29.816234261 18.0
29.868755391 10.0
29.921276522 22.0
29.973797653 16.0
30.026318783 16.0
30.078839914 30.0
30.131361045 33.0
30.183882176 34.0
30.236403306 35.0
30.288924437 30.0
30.341445568 34.0
30.393966698 30.0
30.446487829 16.0
30.499008960 19.0
30.551530090 15.0
30.604051221 13.0
30.656572352 23.0
30.709093483 14.0
30.761614613 12.0
30.814135744 18.0
30.866656875 18.0
30.919178005 11.0
30.971699136 13.0
31.024220267 16.0
31.076741397 27.0
31.129262528 13.0
31.181783659 34.0
31.234304790 26.0
31.286825920 35.0
31.339347051 45.0
31.391868182 52.0
31.444389312 96.0
31.496910443 88.0
31.549431574 56.0
31.601952704 26.0
31.654473835 26.0
31.706994966 26.0
31.759516097 12.0
31.812037227 22.0
31.864558358 15.0
31.917079489 13.0
31.969600619 16.0
32.022121750 11.0
32.074642881 12.0
32.127164011 18.0
32.179685142 15.0
32.232206273 8.0
32.284727404 11.0
32.337248534 13.0
32.389769665 11.0
32.442290796 13.0
32.494811926 6.0
32.547333057 11.0
32.599854188 12.0
32.652375318 12.0
32.704896449 14.0
32.757417580 14.0
32.809938711 10.0
32.862459841 17.0
32.914980972 22.0
32.967502103 11.0
33.020023233 12.0
33.072544364 15.0
33.125065495 16.0
33.177586625 11.0
33.230107756 11.0
33.282628887 11.0
33.335150018 18.0
33.387671148 13.0
33.440192279 17.0
33.492713410 7.0
33.545234540 6.0
33.597755671 15.0
33.650276802 9.0
33.702797932 11.0
33.755319063 20.0
33.807840194 11.0
33.860361325 15.0
33.912882455 10.0
33.965403586 13.0
34.017924717 16.0
34.070445847 15.0
34.122966978 13.0
34.175488109 14.0
34.228009239 15.0
34.280530370 6.0
34.333051501 10.0
34.385572632 13.0
34.438093762 17.0
34.490614893 16.0
34.543136024 21.0
34.595657154 12.0
34.648178285 19.0
34.700699416 12.0
34.753220546 7.0
34.805741677 20.0
34.858262808 13.0
34.910783939 23.0
34.963305069 13.0
35.015826200 20.0
35.068347331 9.0
35.120868461 11.0
35.173389592 24.0
35.225910723 31.0
35.278431854 12.0
35.330952984 14.0
35.383474115 12.0
35.435995246 11.0
35.488516376 12.0
35.541037507 22.0
35.593558638 8.0
35.646079768 10.0
35.698600899 8.0
35.751122030 12.0
35.803643161 14.0
35.856164291 5.0
35.908685422 5.0
35.961206553 8.0
36.013727683 6.0
36.066248814 9.0
36.118769945 7.0
36.171291075 9.0
36.223812206 12.0
36.276333337 6.0
36.328854468 6.0
36.381375598 12.0
36.433896729 11.0
36.486417860 6.0
36.538938990 8.0
36.591460121 14.0
36.643981252 3.0
36.696502382 5.0
36.749023513 9.0
36.801544644 10.0
36.854065775 5.0
36.906586905 3.0
36.959108036 9.0
37.011629167 12.0
37.064150297 5.0
37.116671428 14.0
37.169192559 9.0
37.221713689 4.0
37.274234820 7.0
37.326755951 8.0
37.379277082 11.0
37.431798212 7.0
37.484319343 17.0
37.536840474 9.0
37.589361604 9.0
37.641882735 12.0
37.694403866 2.0
37.746924996 8.0
37.799446127 7.0
37.851967258 2.0
37.904488389 5.0
37.957009519 10.0
38.009530650 4.0
38.062051781 9.0
38.114572911 11.0
38.167094042 10.0
38.219615173 6.0
38.272136303 10.0
38.324657434 17.0
38.377178565 14.0
38.429699696 2.0
38.482220826 9.0
38.534741957 9.0
38.587263088 15.0
38.639784218 25.0
38.692305349 12.0
38.744826480 10.0
38.797347610 10.0
38.849868741 7.0
38.902389872 6.0
38.954911003 10.0
39.007432133 8.0
39.059953264 9.0
39.112474395 9.0
39.164995525 4.0
39.217516656 8.0
39.270037787 4.0
39.322558917 12.0
39.375080048 16.0
39.427601179 17.0
39.480122310 26.0
39.532643440 44.0
39.585164571 43.0
39.637685702 24.0
39.690206832 16.0
39.742727963 2.0
39.795249094 12.0
39.847770224 9.0
39.900291355 15.0
39.952812486 14.0
40.005333617 23.0
40.057854747 33.0
40.110375878 65.0
40.162897009 62.0
40.215418139 33.0
40.267939270 11.0
40.320460401 14.0
40.372981531 11.0
40.425502662 21.0
40.478023793 8.0
40.530544924 10.0
40.583066054 4.0
40.635587185 5.0
40.688108316 7.0
40.740629446 6.0
40.793150577 13.0
40.845671708 9.0
40.898192838 12.0
40.950713969 7.0
41.003235100 9.0
41.055756231 11.0
41.108277361 10.0
41.160798492 9.0
41.213319623 5.0
41.265840753 8.0
41.318361884 9.0
41.370883015 2.0
41.423404145 6.0
41.475925276 4.0
41.528446407 10.0
41.580967538 12.0
41.633488668 17.0
41.686009799 24.0
41.738530930 20.0
41.791052060 12.0
41.843573191 12.0
41.896094322 6.0
41.948615452 2.0
42.001136583 10.0
42.053657714 5.0
42.106178845 9.0
42.158699975 8.0
42.211221106 8.0
42.263742237 3.0
42.316263367 6.0
42.368784498 13.0
42.421305629 14.0
42.473826759 16.0
42.526347890 22.0
42.578869021 27.0
42.631390152 61.0
42.683911282 63.0
42.736432413 36.0
42.788953544 23.0
42.841474674 15.0
42.893995805 12.0
42.946516936 12.0
42.999038066 7.0
43.051559197 9.0
43.104080328 8.0
43.156601459 5.0
43.209122589 15.0
43.261643720 7.0
43.314164851 7.0
43.366685981 11.0
43.419207112 7.0
43.471728243 7.0
43.524249373 5.0
43.576770504 4.0
43.629291635 4.0
43.681812766 4.0
43.734333896 3.0
43.786855027 7.0
43.839376158 11.0
43.891897288 5.0
43.944418419 2.0
43.996939550 7.0
44.049460680 5.0
44.101981811 6.0
44.154502942 11.0
44.207024073 4.0
44.259545203 1.0
44.312066334 6.0
44.364587465 5.0
44.417108595 6.0
44.469629726 10.0
44.522150857 5.0
44.574671987 6.0
44.627193118 9.0
44.679714249 6.0
44.732235380 6.0
44.784756510 9.0
44.837277641 4.0
44.889798772 19.0
44.942319902 15.0
44.994841033 12.0
45.047362164 16.0
45.099883295 8.0
45.152404425 9.0
45.204925556 13.0
45.257446687 10.0
45.309967817 7.0
45.362488948 6.0
45.415010079 14.0
45.467531209 9.0
45.520052340 5.0
45.572573471 9.0
45.625094602 11.0
45.677615732 9.0
45.730136863 10.0
45.782657994 7.0
45.835179124 6.0
45.887700255 1.0
45.940221386 10.0
45.992742516 0.0
46.045263647 9.0
46.097784778 8.0
46.150305909 3.0
46.202827039 6.0
46.255348170 9.0
46.307869301 8.0
46.360390431 7.0
46.412911562 7.0
46.465432693 5.0
46.517953823 12.0
46.570474954 9.0
46.622996085 7.0
46.675517216 6.0
46.728038346 9.0
46.780559477 4.0
46.833080608 9.0
46.885601738 6.0
46.938122869 14.0
46.990644000 7.0
47.043165130 10.0
47.095686261 4.0
47.148207392 9.0
47.200728523 6.0
47.253249653 7.0
47.305770784 8.0
47.358291915 7.0
47.410813045 9.0
47.463334176 18.0
47.515855307 15.0
47.568376437 15.0
47.620897568 7.0
47.673418699 7.0
47.725939830 9.0
47.778460960 3.0
47.830982091 7.0
47.883503222 8.0
47.936024352 5.0
47.988545483 6.0
48.041066614 5.0
48.093587744 6.0
48.146108875 16.0
48.198630006 2.0
48.251151137 10.0
48.303672267 11.0
48.356193398 5.0
48.408714529 10.0
48.461235659 9.0
48.513756790 3.0
48.566277921 12.0
48.618799051 13.0
48.671320182 11.0
48.723841313 11.0
48.776362444 10.0
48.828883574 10.0
48.881404705 11.0
48.933925836 7.0
48.986446966 9.0
49.038968097 6.0
49.091489228 10.0
49.144010358 4.0
49.196531489 11.0
49.249052620 11.0
49.301573751 7.0
49.354094881 14.0
49.406616012 11.0
49.459137143 5.0
49.511658273 10.0
49.564179404 17.0
49.616700535 23.0
49.669221665 36.0
49.721742796 30.0
49.774263927 13.0
49.826785058 14.0
49.879306188 19.0
49.931827319 7.0
49.984348450 10.0
50.036869580 11.0
50.089390711 14.0
50.141911842 8.0
50.194432972 19.0
50.246954103 7.0
50.299475234 18.0
50.351996365 9.0
50.404517495 15.0
50.457038626 13.0
50.509559757 17.0
50.562080887 18.0
50.614602018 17.0
50.667123149 13.0
50.719644279 13.0
50.772165410 6.0
50.824686541 9.0
50.877207672 11.0
50.929728802 15.0
50.982249933 8.0
51.034771064 5.0
51.087292194 7.0
51.139813325 6.0
51.192334456 9.0
51.244855586 9.0
51.297376717 9.0
51.349897848 5.0
51.402418979 5.0
51.454940109 4.0
51.507461240 6.0
51.559982371 9.0
51.612503501 7.0
51.665024632 2.0
51.717545763 4.0
51.770066893 6.0
51.822588024 14.0
51.875109155 14.0
51.927630286 11.0
51.980151416 13.0
52.032672547 8.0
52.085193678 14.0
52.137714808 3.0
52.190235939 3.0
52.242757070 7.0
52.295278200 5.0
52.347799331 24.0
52.400320462 9.0
52.452841593 10.0
52.505362723 5.0
52.557883854 11.0
52.610404985 7.0
52.662926115 5.0
52.715447246 7.0
52.767968377 5.0
52.820489507 5.0
52.873010638 8.0
52.925531769 5.0
52.978052900 10.0
53.030574030 7.0
53.083095161 6.0
53.135616292 3.0
53.188137422 2.0
53.240658553 12.0
53.293179684 4.0
53.345700814 3.0
53.398221945 5.0
53.450743076 9.0
53.503264207 8.0
53.555785337 8.0
53.608306468 4.0
53.660827599 3.0
53.713348729 3.0
53.765869860 10.0
53.818390991 10.0
53.870912121 9.0
53.923433252 9.0
53.975954383 13.0
54.028475514 8.0
54.080996644 2.0
54.133517775 8.0
54.186038906 11.0
54.238560036 1.0
54.291081167 5.0
54.343602298 7.0
54.396123428 2.0
54.448644559 7.0
54.501165690 3.0
54.553686821 8.0
54.606207951 6.0
54.658729082 6.0
54.711250213 13.0
54.763771343 7.0
54.816292474 5.0
54.868813605 5.0
54.921334735 8.0
54.973855866 6.0
55.026376997 12.0
55.078898128 10.0
55.131419258 4.0
55.183940389 6.0
55.236461520 4.0
55.288982650 4.0
55.341503781 2.0
55.394024912 5.0
55.446546043 4.0
55.499067173 3.0
55.551588304 12.0
55.604109435 3.0
55.656630565 4.0
55.709151696 8.0
55.761672827 2.0
55.814193957 6.0
55.866715088 6.0
55.919236219 5.0
55.971757350 5.0
56.024278480 3.0
56.076799611 11.0
56.129320742 2.0
56.181841872 7.0
56.234363003 8.0
56.286884134 9.0
56.339405264 8.0
56.391926395 18.0
56.444447526 14.0
56.496968657 13.0
56.549489787 7.0
56.602010918 5.0
56.654532049 9.0
56.707053179 5.0
56.759574310 5.0
56.812095441 4.0
56.864616571 3.0
56.917137702 9.0
56.969658833 8.0
57.022179964 4.0
57.074701094 4.0
57.127222225 7.0
57.179743356 5.0
57.232264486 3.0
57.284785617 4.0
57.337306748 9.0
57.389827878 3.0
57.442349009 4.0
57.494870140 2.0
57.547391271 3.0
57.599912401 6.0
57.652433532 10.0
57.704954663 10.0
57.757475793 7.0
57.809996924 7.0
57.862518055 7.0
57.915039185 8.0
57.967560316 13.0
58.020081447 6.0
58.072602578 9.0
58.125123708 7.0
58.177644839 4.0
58.230165970 10.0
58.282687100 6.0
58.335208231 9.0
58.387729362 8.0
58.440250492 4.0
58.492771623 12.0
58.545292754 14.0
58.597813885 10.0
58.650335015 7.0
58.702856146 4.0
58.755377277 3.0
58.807898407 11.0
58.860419538 14.0
58.912940669 3.0
58.965461799 9.0
59.017982930 7.0
59.070504061 7.0
59.123025192 8.0
59.175546322 12.0
59.228067453 6.0
59.280588584 10.0
59.333109714 7.0
59.385630845 7.0
59.438151976 9.0
59.490673106 1.0
59.543194237 2.0
59.595715368 5.0
59.648236499 7.0
59.700757629 13.0
59.753278760 18.0
59.805799891 13.0
59.858321021 15.0
59.910842152 12.0
59.963363283 33.0
60.015884413 24.0
60.068405544 16.0
60.120926675 18.0
60.173447806 24.0
60.225968936 16.0
60.278490067 19.0
60.331011198 20.0
60.383532328 8.0
60.436053459 8.0
60.488574590 3.0
60.541095720 2.0
60.593616851 9.0
60.646137982 9.0
60.698659113 12.0
60.751180243 6.0
60.803701374 6.0
60.856222505 2.0
60.908743635 7.0
60.961264766 7.0
61.013785897 11.0
61.066307027 9.0
61.118828158 8.0
61.171349289 8.0
61.223870420 6.0
61.276391550 6.0
61.328912681 10.0
61.381433812 9.0
61.433954942 3.0
61.486476073 7.0
61.538997204 15.0
61.591518334 11.0
61.644039465 7.0
61.696560596 5.0
61.749081727 7.0
61.801602857 10.0
61.854123988 8.0
61.906645119 7.0
61.959166249 15.0
62.011687380 9.0
62.064208511 10.0
62.116729641 4.0
62.169250772 6.0
62.221771903 10.0
62.274293034 9.0
62.326814164 8.0
62.379335295 3.0
62.431856426 9.0
62.484377556 4.0
62.536898687 6.0
62.589419818 6.0
62.641940948 6.0
62.694462079 5.0
62.746983210 4.0
62.799504341 11.0
62.852025471 8.0
62.904546602 7.0
62.957067733 10.0
63.009588863 11.0
63.062109994 5.0
63.114631125 5.0
63.167152255 10.0
63.219673386 5.0
63.272194517 4.0
63.324715648 10.0
63.377236778 9.0
63.429757909 9.0
63.482279040 6.0
63.534800170 9.0
63.587321301 10.0
63.639842432 9.0
63.692363562 4.0
63.744884693 3.0
63.797405824 6.0
63.849926955 6.0
63.902448085 7.0
63.954969216 12.0
64.007490347 8.0
64.060011477 7.0
64.112532608 12.0
64.165053739 7.0
64.217574869 3.0
64.270096000 6.0
64.322617131 3.0
64.375138262 4.0
64.427659392 2.0
64.480180523 15.0
64.532701654 2.0
64.585222784 5.0
64.637743915 7.0
64.690265046 13.0
64.742786176 11.0
64.795307307 4.0
64.847828438 4.0
64.900349569 11.0
64.952870699 8.0
65.005391830 8.0
